voltage,flow,dp
2.86293,800,17.288011768125
2.83149,700,14.422487638125
2.80361,600,12.098497963125
2.77466,500,9.90125267249999
2.73971,400,7.54174103812501
2.69944,300,5.22064116
2.64765,200,2.861318578125
2.58709,100,0.995487688124997
2.40184,-100,-1.26464436
2.33593,-200,-3.53311414312501
2.28602,-300,-6.00960155249999
2.24458,-400,-8.5626681525
2.20779,-500,-11.207002288125
2.17688,-600,-13.70335764
2.14611,-700,-16.437504838125
2.11864,-800,-19.08840276
